 Computed angles file for PUMA motor control
 int15h3.tag
 Eval_MLI v4.0
2	// File format
7	// Number of angle
1	// first slope : rising(1) falling(0)
ag1(tour)	ag2(tour)	ag3(tour)	ag4(tour)	ag5(tour)	ag6(tour)	ag7(tour)
0.033333	0.066667	0.100000	0.133333	0.166667	0.200000	0.233333
0.033383	0.066572	0.100125	0.133194	0.166811	0.199858	0.233472
0.033436	0.066481	0.100247	0.133056	0.166953	0.199717	0.233611
0.033486	0.066386	0.100372	0.132917	0.167097	0.199575	0.233750
0.033536	0.066294	0.100497	0.132775	0.167242	0.199433	0.233889
0.033589	0.066200	0.100619	0.132636	0.167383	0.199292	0.234025
0.033639	0.066108	0.100744	0.132497	0.167528	0.199150	0.234164
0.033692	0.066017	0.100869	0.132358	0.167672	0.199008	0.234303
0.033744	0.065925	0.100994	0.132219	0.167814	0.198867	0.234442
0.033794	0.065831	0.101119	0.132081	0.167958	0.198725	0.234581
0.033847	0.065739	0.101244	0.131942	0.168103	0.198583	0.234719
0.033900	0.065647	0.101372	0.131806	0.168247	0.198442	0.234858
0.033953	0.065558	0.101497	0.131667	0.168389	0.198300	0.234994
0.034006	0.065467	0.101622	0.131528	0.168533	0.198158	0.235133
0.034058	0.065375	0.101747	0.131389	0.168678	0.198017	0.235272
0.034111	0.065283	0.101875	0.131250	0.168819	0.197875	0.235411
0.034164	0.065194	0.102000	0.131111	0.168964	0.197733	0.235550
0.034217	0.065103	0.102128	0.130975	0.169108	0.197592	0.235689
0.034269	0.065014	0.102253	0.130836	0.169250	0.197450	0.235825
0.034325	0.064922	0.102381	0.130697	0.169394	0.197308	0.235964
0.034378	0.064833	0.102508	0.130561	0.169539	0.197167	0.236103
0.034431	0.064744	0.102636	0.130422	0.169681	0.197025	0.236242
0.034486	0.064656	0.102761	0.130286	0.169825	0.196881	0.236381
0.034539	0.064567	0.102889	0.130147	0.169969	0.196739	0.236517
0.034594	0.064478	0.103017	0.130011	0.170111	0.196597	0.236656
0.034647	0.064389	0.103144	0.129872	0.170256	0.196456	0.236794
0.034703	0.064300	0.103272	0.129736	0.170400	0.196314	0.236933
0.034758	0.064211	0.103400	0.129597	0.170542	0.196172	0.237069
0.034814	0.064122	0.103531	0.129461	0.170686	0.196028	0.237208
0.034867	0.064036	0.103658	0.129325	0.170828	0.195886	0.237347
0.034922	0.063947	0.103786	0.129186	0.170972	0.195744	0.237486
0.034978	0.063861	0.103914	0.129050	0.171117	0.195603	0.237625
0.035033	0.063772	0.104044	0.128914	0.171258	0.195461	0.237761
0.035089	0.063686	0.104172	0.128778	0.171403	0.195317	0.237900
0.035144	0.063597	0.104303	0.128639	0.171547	0.195175	0.238039
0.035203	0.063511	0.104431	0.128503	0.171689	0.195033	0.238178
0.035258	0.063425	0.104561	0.128367	0.171833	0.194892	0.238314
0.035314	0.063339	0.104692	0.128231	0.171975	0.194747	0.238453
0.035372	0.063253	0.104819	0.128094	0.172119	0.194606	0.238592
0.035428	0.063167	0.104950	0.127958	0.172264	0.194464	0.238731
0.035486	0.063081	0.105081	0.127822	0.172406	0.194319	0.238867
0.035542	0.062994	0.105211	0.127686	0.172550	0.194178	0.239006
0.035600	0.062911	0.105342	0.127550	0.172692	0.194036	0.239144
0.035656	0.062825	0.105472	0.127417	0.172836	0.193892	0.239283
0.035714	0.062739	0.105603	0.127281	0.172981	0.193750	0.239419
0.035772	0.062656	0.105733	0.127144	0.173122	0.193608	0.239558
0.035831	0.062569	0.105864	0.127008	0.173267	0.193464	0.239697
0.035889	0.062486	0.105997	0.126875	0.173408	0.193322	0.239833
0.035947	0.062403	0.106128	0.126739	0.173553	0.193181	0.239972
0.036006	0.062317	0.106258	0.126603	0.173694	0.193036	0.240111
0.036064	0.062233	0.106392	0.126469	0.173839	0.192894	0.240250
0.036122	0.062150	0.106522	0.126333	0.173981	0.192750	0.240386
0.036183	0.062067	0.106656	0.126200	0.174125	0.192608	0.240525
0.036242	0.061983	0.106786	0.126064	0.174269	0.192467	0.240664
0.036300	0.061900	0.106919	0.125931	0.174411	0.192322	0.240800
0.036361	0.061817	0.107050	0.125794	0.174556	0.192181	0.240939
0.036419	0.061733	0.107183	0.125661	0.174697	0.192036	0.241078
0.036481	0.061653	0.107317	0.125528	0.174842	0.191894	0.241217
0.036539	0.061569	0.107450	0.125392	0.174983	0.191750	0.241353
0.036600	0.061486	0.107583	0.125258	0.175128	0.191608	0.241492
0.036661	0.061406	0.107717	0.125125	0.175269	0.191464	0.241631
0.036722	0.061322	0.107850	0.124992	0.175414	0.191322	0.241767
0.036783	0.061242	0.107983	0.124858	0.175556	0.191178	0.241906
0.036844	0.061161	0.108117	0.124722	0.175700	0.191036	0.242044
0.036906	0.061078	0.108250	0.124589	0.175842	0.190892	0.242181
0.036967	0.060997	0.108383	0.124456	0.175983	0.190750	0.242319
0.037028	0.060917	0.108517	0.124322	0.176128	0.190606	0.242458
0.037089	0.060836	0.108653	0.124189	0.176269	0.190464	0.242594
0.037153	0.060756	0.108786	0.124058	0.176414	0.190319	0.242733
0.037214	0.060675	0.108919	0.123925	0.176556	0.190178	0.242872
0.037278	0.060594	0.109056	0.123792	0.176700	0.190033	0.243011
0.037339	0.060514	0.109189	0.123658	0.176842	0.189892	0.243147
0.037403	0.060436	0.109325	0.123525	0.176983	0.189747	0.243286
0.037464	0.060356	0.109461	0.123394	0.177128	0.189603	0.243425
0.037528	0.060275	0.109594	0.123261	0.177269	0.189461	0.243561
0.037592	0.060197	0.109731	0.123128	0.177414	0.189317	0.243700
0.037656	0.060117	0.109867	0.122997	0.177556	0.189175	0.243839
0.037719	0.060039	0.110003	0.122864	0.177697	0.189031	0.243975
0.037783	0.059961	0.110136	0.122733	0.177842	0.188886	0.244114
0.037847	0.059881	0.110272	0.122600	0.177983	0.188744	0.244253
0.037911	0.059803	0.110408	0.122469	0.178125	0.188600	0.244389
0.037975	0.059725	0.110544	0.122339	0.178269	0.188456	0.244528
0.038042	0.059647	0.110681	0.122206	0.178411	0.188314	0.244667
0.038106	0.059569	0.110817	0.122075	0.178553	0.188169	0.244803
0.038172	0.059492	0.110956	0.121944	0.178697	0.188025	0.244942
0.038236	0.059414	0.111092	0.121814	0.178839	0.187883	0.245081
0.038303	0.059336	0.111228	0.121683	0.178981	0.187739	0.245217
0.038367	0.059258	0.111364	0.121550	0.179125	0.187594	0.245356
0.038433	0.059181	0.111503	0.121419	0.179267	0.187453	0.245494
0.038500	0.059106	0.111639	0.121289	0.179408	0.187308	0.245631
0.038567	0.059028	0.111778	0.121158	0.179550	0.187164	0.245769
0.038633	0.058953	0.111914	0.121028	0.179694	0.187019	0.245908
0.038700	0.058875	0.112053	0.120900	0.179836	0.186878	0.246047
0.038767	0.058800	0.112189	0.120769	0.179978	0.186733	0.246183
0.038833	0.058722	0.112328	0.120639	0.180119	0.186589	0.246322
0.038903	0.058647	0.112464	0.120508	0.180264	0.186444	0.246461
0.038969	0.058572	0.112603	0.120378	0.180406	0.186303	0.246597
0.039036	0.058497	0.112742	0.120250	0.180547	0.186158	0.246736
0.039106	0.058422	0.112881	0.120119	0.180689	0.186014	0.246875
0.039175	0.058347	0.113019	0.119992	0.180833	0.185869	0.247011
0.039242	0.058272	0.113156	0.119861	0.180975	0.185728	0.247150
0.039311	0.058197	0.113294	0.119733	0.181117	0.185583	0.247289
0.039381	0.058122	0.113433	0.119603	0.181258	0.185439	0.247425
0.039450	0.058047	0.113572	0.119475	0.181400	0.185294	0.247564
0.039519	0.057972	0.113711	0.119344	0.181542	0.185150	0.247703
0.039589	0.057897	0.113853	0.119217	0.181683	0.185008	0.247842
0.039658	0.057825	0.113992	0.119089	0.181828	0.184864	0.247978
0.039728	0.057750	0.114131	0.118961	0.181969	0.184719	0.248117
0.039800	0.057678	0.114269	0.118833	0.182111	0.184575	0.248256
0.039869	0.057603	0.114408	0.118703	0.182253	0.184431	0.248392
0.039939	0.057531	0.114550	0.118575	0.182394	0.184286	0.248531
0.040011	0.057458	0.114689	0.118447	0.182536	0.184142	0.248669
0.040083	0.057383	0.114831	0.118319	0.182678	0.184000	0.248808
0.040153	0.057311	0.114969	0.118192	0.182819	0.183856	0.248944
0.040225	0.057239	0.115111	0.118067	0.182961	0.183711	0.249083
0.040297	0.057167	0.115250	0.117939	0.183103	0.183567	0.249222
0.040369	0.057094	0.115392	0.117811	0.183244	0.183422	0.249358
0.040369	0.057094	0.115392	0.117811	0.183244	0.183422	0.249358
0.040369	0.057094	0.115392	0.117811	0.183244	0.183422	0.249358
0.040369	0.057094	0.115392	0.117811	0.183244	0.183422	0.249358
0.040369	0.057094	0.115392	0.117811	0.183244	0.183422	0.249358
0.040369	0.057094	0.115392	0.117811	0.183244	0.183422	0.249358
0.040369	0.057094	0.115392	0.117811	0.183244	0.183422	0.249358
0.040369	0.057094	0.115392	0.117811	0.183244	0.183422	0.249358
0.040369	0.057094	0.115392	0.117811	0.183244	0.183422	0.249358
0.040369	0.057094	0.115392	0.117811	0.183244	0.183422	0.249358
0.040369	0.057094	0.115392	0.117811	0.183244	0.183422	0.249358
0.040369	0.057094	0.115392	0.117811	0.183244	0.183422	0.249358
0.040369	0.057094	0.115392	0.117811	0.183244	0.183422	0.249358
