 Computed angles file for PUMA motor control
 int21h3.tag
 Eval_MLI v4.0
2	// File format
10	// Number of angle
1	// first slope : rising(1) falling(0)
ag1(tour)	ag2(tour)	ag3(tour)	ag4(tour)	ag5(tour)	ag6(tour)	ag7(tour)	ag8(tour)	ag9(tour)	ag10(tour)
0.023808	0.047619	0.071428	0.095239	0.119047	0.142858	0.166667	0.190475	0.214286	0.238094
0.023836	0.047569	0.071500	0.095153	0.119144	0.142756	0.166769	0.190375	0.214386	0.237997
0.023861	0.047519	0.071569	0.095067	0.119239	0.142656	0.166872	0.190272	0.214486	0.237897
0.023889	0.047469	0.071642	0.094981	0.119336	0.142553	0.166975	0.190172	0.214586	0.237800
0.023914	0.047419	0.071711	0.094894	0.119433	0.142453	0.167078	0.190069	0.214686	0.237700
0.023942	0.047369	0.071783	0.094808	0.119528	0.142353	0.167181	0.189967	0.214786	0.237600
0.023967	0.047319	0.071856	0.094725	0.119625	0.142250	0.167283	0.189867	0.214886	0.237503
0.023994	0.047269	0.071925	0.094639	0.119722	0.142150	0.167383	0.189764	0.214986	0.237403
0.024022	0.047219	0.071997	0.094553	0.119817	0.142050	0.167486	0.189661	0.215086	0.237306
0.024047	0.047169	0.072069	0.094469	0.119914	0.141947	0.167589	0.189561	0.215186	0.237206
0.024075	0.047119	0.072139	0.094383	0.120011	0.141847	0.167692	0.189458	0.215286	0.237106
0.024100	0.047072	0.072211	0.094297	0.120108	0.141747	0.167794	0.189358	0.215386	0.237008
0.024128	0.047022	0.072283	0.094214	0.120203	0.141644	0.167897	0.189256	0.215486	0.236908
0.024156	0.046972	0.072356	0.094128	0.120300	0.141544	0.168000	0.189153	0.215586	0.236811
0.024183	0.046922	0.072428	0.094044	0.120397	0.141444	0.168103	0.189053	0.215683	0.236711
0.024208	0.046875	0.072500	0.093958	0.120494	0.141342	0.168206	0.188950	0.215783	0.236611
0.024236	0.046825	0.072572	0.093875	0.120592	0.141242	0.168308	0.188847	0.215883	0.236514
0.024264	0.046778	0.072644	0.093789	0.120689	0.141142	0.168411	0.188747	0.215983	0.236414
0.024292	0.046728	0.072717	0.093706	0.120786	0.141042	0.168514	0.188644	0.216083	0.236314
0.024317	0.046681	0.072789	0.093622	0.120881	0.140939	0.168614	0.188542	0.216183	0.236217
0.024344	0.046631	0.072861	0.093536	0.120978	0.140839	0.168717	0.188439	0.216283	0.236117
0.024372	0.046583	0.072936	0.093453	0.121075	0.140739	0.168819	0.188339	0.216383	0.236019
0.024400	0.046533	0.073008	0.093369	0.121172	0.140639	0.168922	0.188236	0.216483	0.235919
0.024428	0.046486	0.073081	0.093286	0.121269	0.140539	0.169025	0.188133	0.216583	0.235819
0.024456	0.046439	0.073156	0.093203	0.121367	0.140439	0.169128	0.188033	0.216683	0.235722
0.024483	0.046389	0.073228	0.093119	0.121467	0.140336	0.169231	0.187931	0.216783	0.235622
0.024511	0.046342	0.073300	0.093033	0.121564	0.140236	0.169333	0.187828	0.216881	0.235522
0.024539	0.046294	0.073375	0.092950	0.121661	0.140136	0.169436	0.187728	0.216981	0.235425
0.024567	0.046247	0.073447	0.092867	0.121758	0.140036	0.169539	0.187625	0.217081	0.235325
0.024594	0.046197	0.073522	0.092783	0.121856	0.139936	0.169639	0.187522	0.217181	0.235225
0.024622	0.046150	0.073594	0.092700	0.121953	0.139836	0.169742	0.187419	0.217281	0.235128
0.024650	0.046103	0.073669	0.092617	0.122050	0.139736	0.169844	0.187319	0.217381	0.235028
0.024678	0.046056	0.073744	0.092536	0.122150	0.139636	0.169947	0.187217	0.217481	0.234928
0.024706	0.046008	0.073817	0.092453	0.122247	0.139533	0.170050	0.187114	0.217581	0.234831
0.024733	0.045961	0.073892	0.092369	0.122344	0.139433	0.170153	0.187011	0.217678	0.234731
0.024764	0.045914	0.073967	0.092286	0.122442	0.139333	0.170256	0.186911	0.217778	0.234631
0.024792	0.045867	0.074042	0.092203	0.122542	0.139233	0.170358	0.186808	0.217878	0.234533
0.024819	0.045819	0.074114	0.092122	0.122639	0.139133	0.170461	0.186706	0.217978	0.234433
0.024847	0.045772	0.074189	0.092039	0.122736	0.139033	0.170564	0.186603	0.218078	0.234333
0.024875	0.045725	0.074264	0.091956	0.122833	0.138933	0.170664	0.186503	0.218178	0.234236
0.024906	0.045681	0.074339	0.091875	0.122933	0.138833	0.170767	0.186400	0.218275	0.234136
0.024933	0.045633	0.074414	0.091792	0.123031	0.138733	0.170869	0.186297	0.218375	0.234036
0.024961	0.045586	0.074489	0.091708	0.123131	0.138633	0.170972	0.186194	0.218475	0.233939
0.024992	0.045539	0.074564	0.091628	0.123228	0.138533	0.171075	0.186092	0.218575	0.233839
0.025019	0.045494	0.074642	0.091544	0.123325	0.138433	0.171178	0.185992	0.218675	0.233739
0.025050	0.045447	0.074717	0.091464	0.123425	0.138336	0.171281	0.185889	0.218775	0.233642
0.025078	0.045400	0.074792	0.091383	0.123522	0.138236	0.171383	0.185786	0.218872	0.233542
0.025106	0.045356	0.074867	0.091300	0.123622	0.138136	0.171483	0.185683	0.218972	0.233442
0.025136	0.045308	0.074942	0.091219	0.123719	0.138036	0.171586	0.185583	0.219072	0.233344
0.025164	0.045261	0.075019	0.091136	0.123819	0.137936	0.171689	0.185481	0.219172	0.233244
0.025194	0.045217	0.075094	0.091056	0.123917	0.137836	0.171792	0.185378	0.219269	0.233144
0.025222	0.045169	0.075169	0.090975	0.124017	0.137736	0.171894	0.185275	0.219369	0.233044
0.025253	0.045125	0.075247	0.090894	0.124114	0.137636	0.171997	0.185172	0.219469	0.232947
0.025283	0.045081	0.075322	0.090811	0.124214	0.137539	0.172100	0.185069	0.219569	0.232847
0.025311	0.045033	0.075400	0.090731	0.124314	0.137439	0.172203	0.184969	0.219669	0.232747
0.025342	0.044989	0.075478	0.090650	0.124411	0.137339	0.172303	0.184867	0.219767	0.232650
0.025369	0.044942	0.075553	0.090569	0.124511	0.137239	0.172406	0.184764	0.219867	0.232550
0.025400	0.044897	0.075631	0.090489	0.124611	0.137139	0.172508	0.184661	0.219967	0.232450
0.025431	0.044853	0.075706	0.090408	0.124708	0.137042	0.172611	0.184558	0.220067	0.232350
0.025461	0.044808	0.075783	0.090328	0.124808	0.136942	0.172714	0.184456	0.220164	0.232253
0.025489	0.044761	0.075861	0.090247	0.124908	0.136842	0.172817	0.184356	0.220264	0.232153
0.025519	0.044717	0.075939	0.090167	0.125006	0.136744	0.172917	0.184253	0.220364	0.232053
0.025550	0.044672	0.076017	0.090086	0.125106	0.136644	0.173019	0.184150	0.220464	0.231953
0.025581	0.044628	0.076092	0.090006	0.125206	0.136544	0.173122	0.184047	0.220561	0.231856
0.025611	0.044583	0.076169	0.089928	0.125306	0.136444	0.173225	0.183944	0.220661	0.231756
0.025642	0.044539	0.076247	0.089847	0.125406	0.136347	0.173328	0.183842	0.220761	0.231656
0.025669	0.044494	0.076325	0.089767	0.125503	0.136247	0.173431	0.183739	0.220858	0.231556
0.025700	0.044450	0.076403	0.089686	0.125603	0.136147	0.173531	0.183639	0.220958	0.231458
0.025731	0.044406	0.076481	0.089608	0.125703	0.136050	0.173633	0.183536	0.221058	0.231358
0.025761	0.044361	0.076561	0.089528	0.125803	0.135950	0.173736	0.183433	0.221158	0.231258
0.025792	0.044317	0.076639	0.089447	0.125903	0.135853	0.173839	0.183331	0.221256	0.231158
0.025822	0.044272	0.076717	0.089369	0.126003	0.135753	0.173942	0.183228	0.221356	0.231061
0.025853	0.044228	0.076794	0.089289	0.126103	0.135656	0.174044	0.183125	0.221456	0.230961
0.025883	0.044183	0.076875	0.089211	0.126203	0.135556	0.174144	0.183022	0.221553	0.230861
0.025917	0.044139	0.076953	0.089131	0.126303	0.135456	0.174247	0.182919	0.221653	0.230761
0.025947	0.044097	0.077031	0.089053	0.126403	0.135358	0.174350	0.182819	0.221753	0.230661
0.025978	0.044053	0.077111	0.088972	0.126503	0.135258	0.174453	0.182717	0.221853	0.230564
0.026008	0.044008	0.077189	0.088894	0.126603	0.135161	0.174556	0.182614	0.221950	0.230464
0.026039	0.043964	0.077269	0.088817	0.126703	0.135061	0.174656	0.182511	0.222050	0.230364
0.026072	0.043922	0.077347	0.088736	0.126803	0.134964	0.174758	0.182408	0.222150	0.230264
0.026103	0.043878	0.077428	0.088658	0.126903	0.134867	0.174861	0.182306	0.222247	0.230164
0.026133	0.043836	0.077506	0.088581	0.127003	0.134767	0.174964	0.182203	0.222347	0.230067
0.026164	0.043792	0.077586	0.088503	0.127103	0.134669	0.175067	0.182100	0.222447	0.229967
0.026197	0.043747	0.077667	0.088422	0.127203	0.134569	0.175167	0.181997	0.222544	0.229867
0.026228	0.043706	0.077744	0.088344	0.127303	0.134472	0.175269	0.181894	0.222644	0.229767
0.026258	0.043661	0.077825	0.088267	0.127403	0.134375	0.175372	0.181792	0.222744	0.229667
0.026292	0.043619	0.077906	0.088189	0.127503	0.134275	0.175475	0.181689	0.222842	0.229567
0.026322	0.043575	0.077986	0.088111	0.127603	0.134178	0.175575	0.181589	0.222942	0.229469
0.026356	0.043533	0.078067	0.088033	0.127706	0.134081	0.175678	0.181486	0.223039	0.229369
0.026386	0.043492	0.078147	0.087956	0.127806	0.133981	0.175781	0.181383	0.223139	0.229269
0.026419	0.043447	0.078228	0.087878	0.127906	0.133883	0.175883	0.181281	0.223239	0.229169
0.026450	0.043406	0.078308	0.087800	0.128006	0.133786	0.175983	0.181178	0.223336	0.229069
0.026483	0.043364	0.078389	0.087722	0.128106	0.133686	0.176086	0.181075	0.223436	0.228969
0.026517	0.043319	0.078469	0.087644	0.128208	0.133589	0.176189	0.180972	0.223536	0.228872
0.026547	0.043278	0.078550	0.087569	0.128308	0.133492	0.176292	0.180869	0.223633	0.228772
0.026581	0.043236	0.078631	0.087492	0.128408	0.133394	0.176392	0.180767	0.223733	0.228672
0.026614	0.043194	0.078711	0.087414	0.128508	0.133297	0.176494	0.180664	0.223831	0.228572
0.026644	0.043153	0.078794	0.087336	0.128611	0.133197	0.176597	0.180561	0.223931	0.228472
0.026678	0.043108	0.078875	0.087261	0.128711	0.133100	0.176700	0.180458	0.224031	0.228372
0.026711	0.043067	0.078956	0.087183	0.128811	0.133003	0.176800	0.180356	0.224128	0.228272
0.026744	0.043025	0.079039	0.087108	0.128914	0.132906	0.176903	0.180253	0.224228	0.228172
0.026775	0.042983	0.079119	0.087031	0.129014	0.132808	0.177006	0.180150	0.224325	0.228075
0.026808	0.042942	0.079200	0.086953	0.129117	0.132711	0.177106	0.180047	0.224425	0.227975
0.026842	0.042900	0.079283	0.086878	0.129217	0.132614	0.177208	0.179944	0.224525	0.227875
0.026875	0.042858	0.079367	0.086800	0.129317	0.132517	0.177311	0.179842	0.224622	0.227775
0.026908	0.042817	0.079447	0.086725	0.129419	0.132419	0.177414	0.179739	0.224722	0.227675
0.026942	0.042775	0.079531	0.086650	0.129519	0.132319	0.177514	0.179636	0.224819	0.227575
0.026975	0.042733	0.079611	0.086572	0.129622	0.132222	0.177617	0.179533	0.224919	0.227475
0.027008	0.042694	0.079694	0.086497	0.129722	0.132125	0.177719	0.179431	0.225019	0.227375
0.027042	0.042653	0.079778	0.086422	0.129825	0.132028	0.177819	0.179328	0.225117	0.227275
0.027075	0.042611	0.079861	0.086344	0.129925	0.131933	0.177922	0.179225	0.225217	0.227175
0.027108	0.042569	0.079944	0.086269	0.130028	0.131836	0.178025	0.179122	0.225314	0.227075
0.027142	0.042528	0.080025	0.086194	0.130128	0.131739	0.178125	0.179019	0.225414	0.226978
0.027178	0.042489	0.080108	0.086119	0.130231	0.131642	0.178228	0.178917	0.225511	0.226878
0.027211	0.042447	0.080192	0.086044	0.130331	0.131544	0.178331	0.178814	0.225611	0.226778
0.027244	0.042406	0.080275	0.085967	0.130433	0.131447	0.178431	0.178711	0.225708	0.226678
0.027278	0.042367	0.080358	0.085892	0.130533	0.131350	0.178533	0.178608	0.225808	0.226578
0.027278	0.042367	0.080358	0.085892	0.130533	0.131350	0.178533	0.178608	0.225808	0.226578
0.027278	0.042367	0.080358	0.085892	0.130533	0.131350	0.178533	0.178608	0.225808	0.226578
0.027278	0.042367	0.080358	0.085892	0.130533	0.131350	0.178533	0.178608	0.225808	0.226578
0.027278	0.042367	0.080358	0.085892	0.130533	0.131350	0.178533	0.178608	0.225808	0.226578
0.027278	0.042367	0.080358	0.085892	0.130533	0.131350	0.178533	0.178608	0.225808	0.226578
0.027278	0.042367	0.080358	0.085892	0.130533	0.131350	0.178533	0.178608	0.225808	0.226578
0.027278	0.042367	0.080358	0.085892	0.130533	0.131350	0.178533	0.178608	0.225808	0.226578
0.027278	0.042367	0.080358	0.085892	0.130533	0.131350	0.178533	0.178608	0.225808	0.226578
0.027278	0.042367	0.080358	0.085892	0.130533	0.131350	0.178533	0.178608	0.225808	0.226578
0.027278	0.042367	0.080358	0.085892	0.130533	0.131350	0.178533	0.178608	0.225808	0.226578
0.027278	0.042367	0.080358	0.085892	0.130533	0.131350	0.178533	0.178608	0.225808	0.226578
0.027278	0.042367	0.080358	0.085892	0.130533	0.131350	0.178533	0.178608	0.225808	0.226578
